'freq[cm-1]','tip3p[200ps/hann/30]', 'spce/qspcfw[200ps/hann/30]', 'spce/spcfw[200ps/hann/30]', 'spce[200ps/hann/30]', 'opc3pol[200ps/hann/30]', 'pbe[45ps/hann/30]'
0.000000,67.379785,22.718915,18.275294,38.970610,17.016003,4.125112
1.000000,69.657839,23.460526,18.871950,40.299968,17.572533,4.250176
2.000000,71.953979,24.206786,19.472277,41.642649,18.133029,4.375168
3.000000,74.249130,24.951507,20.071090,42.985463,18.692699,4.499927
4.000000,76.558308,25.698575,20.671955,44.337982,19.254989,4.624292
5.000000,78.869447,26.444908,21.272133,45.694643,19.817353,4.750227
6.000000,81.168943,27.187051,21.868407,47.045509,20.376809,4.873652
7.000000,83.472309,27.929048,22.464509,48.402654,20.937021,4.996267
8.000000,85.759439,28.664644,23.055179,49.750387,21.492990,5.117931
9.000000,88.044595,29.398413,23.644407,51.100629,22.048544,5.238509
10.000000,90.317986,30.126585,24.229413,52.444676,22.601030,5.357870
11.000000,92.566320,30.845814,24.806598,53.775846,23.147415,5.475892
12.000000,94.805880,31.560128,25.380468,55.102541,23.691807,5.594530
13.000000,97.025092,32.266502,25.947768,56.419369,24.231624,5.709834
14.000000,99.211901,32.961873,26.505790,57.719887,24.763653,5.823506
15.000000,101.382974,33.649962,27.058617,59.012862,25.292212,5.935455
16.000000,103.517073,34.325672,27.601059,60.285965,25.812248,6.045595
17.000000,105.631371,34.993025,28.137850,61.549892,26.327832,6.153848
18.000000,107.715069,35.649498,28.666012,62.798056,26.836817,6.260145
19.000000,109.756456,36.291355,29.182168,64.021788,27.336195,6.366538
20.000000,111.773005,36.923857,29.691563,65.232871,27.830474,6.469051
21.000000,113.744280,37.540552,30.188434,66.418305,28.314527,6.569482
22.000000,115.686719,38.147246,30.678522,67.588575,28.792825,6.667793
23.000000,117.591468,38.740593,31.158769,68.738504,29.263136,6.763954
24.000000,119.448977,39.316972,31.625519,69.860917,29.722793,6.857941
25.000000,121.277889,39.882310,32.084522,70.967120,30.176439,6.949736
26.000000,123.055416,40.430319,32.530467,72.044509,30.619103,7.039328
27.000000,124.804123,40.966873,32.968245,73.103949,31.055543,7.128975
28.000000,126.509921,41.489338,33.395976,74.140170,31.483592,7.214482
29.000000,128.164950,41.993944,33.810887,75.147762,31.900571,7.297828
30.000000,129.786819,42.487204,34.218243,76.137222,32.311564,7.379024
31.000000,131.358790,42.962544,34.612875,77.097539,32.711410,7.458087
32.000000,132.898656,43.426080,35.000322,78.040011,33.105225,7.535038
33.000000,134.397812,43.874833,35.378441,78.959922,33.490763,7.609900
34.000000,135.847473,44.306757,35.744287,79.850751,33.865612,7.685106
35.000000,137.266105,44.726689,36.103676,80.724370,34.235123,7.756224
36.000000,138.636089,45.130182,36.451467,81.570131,34.593841,7.825383
37.000000,139.978238,45.522600,36.793029,82.398590,34.947626,7.892618
38.000000,141.283035,45.902419,37.126317,83.206268,35.293522,7.957966
39.000000,142.539946,46.265299,37.449422,83.988320,35.629400,8.021465
40.000000,143.771241,46.619027,37.767283,84.756121,35.960337,8.083151
41.000000,144.956683,46.956180,38.075546,85.498809,36.281716,8.143061
42.000000,146.119504,47.284589,38.379794,86.228975,36.598621,8.203661
43.000000,147.249893,47.601278,38.678092,86.942077,36.909013,8.260487
44.000000,148.336979,47.902591,38.967211,87.632009,37.210286,8.315690
45.000000,149.404342,48.196704,39.253216,88.313684,37.507913,8.369308
46.000000,150.441862,48.480324,39.533323,88.981302,37.799337,8.421378
47.000000,151.440906,48.749387,39.806522,89.626849,38.082336,8.471935
48.000000,152.422436,49.012163,40.077225,90.265793,38.361914,8.521009
49.000000,153.368297,49.261565,40.341508,90.885849,38.633558,8.571193
50.000000,154.299541,49.505029,40.604602,91.500538,38.902596,8.617773
51.000000,155.208792,49.739639,40.864369,92.106151,39.166979,8.663007
52.000000,156.085162,49.962866,41.118170,92.695319,39.423338,8.706924
53.000000,156.954155,50.181264,41.371907,93.283413,39.677731,8.749551
54.000000,157.790475,50.389070,41.620196,93.856327,39.924673,8.790915
55.000000,158.623185,50.593395,41.869350,94.429701,40.169792,8.831037
56.000000,159.438929,50.791508,42.116662,94.997700,40.411012,8.872735
57.000000,160.225884,50.979869,42.359067,95.553029,40.645283,8.910850
58.000000,161.011592,51.166126,42.602738,96.111507,40.878333,8.947839
59.000000,161.771172,51.343584,42.842231,96.658604,41.104834,8.983721
60.000000,162.531673,51.519904,43.083186,97.210671,41.330165,9.018519
61.000000,163.280311,51.691952,43.323076,97.761394,41.552250,9.052250
62.000000,164.008416,51.856614,43.559713,98.301740,41.768351,9.084935
63.000000,164.736751,52.020780,43.797952,98.848254,41.984167,9.119467
64.000000,165.448569,52.178830,44.033239,99.386299,42.193973,9.150534
65.000000,166.162148,52.337090,44.270783,99.929665,42.404005,9.180662
66.000000,166.871548,52.493742,44.508282,100.473417,42.611305,9.209871
67.000000,167.567254,52.645227,44.742523,101.010979,42.812953,9.238185
68.000000,168.269885,52.798915,44.979462,101.556271,43.014973,9.265624
69.000000,168.959482,52.947970,45.213148,102.094681,43.211689,9.292212
70.000000,169.658974,53.100097,45.450056,102.641140,43.409210,9.317972
71.000000,170.358723,53.252131,45.687138,103.188455,43.604942,9.346002
72.000000,171.046851,53.400713,45.920430,103.729541,43.795520,9.370627
73.000000,171.746791,53.553166,46.157130,104.278569,43.987899,9.394555
74.000000,172.437322,53.703073,46.389921,104.821189,44.174983,9.417815
75.000000,173.142725,53.857919,46.626333,105.373106,44.364380,9.440440
76.000000,173.855045,54.014769,46.862468,105.926950,44.552002,9.462464
77.000000,174.556087,54.169603,47.094457,106.472310,44.735126,9.483920
78.000000,175.277270,54.330117,47.328978,107.025594,44.920021,9.507977
79.000000,176.003464,54.493196,47.562855,107.578684,45.104250,9.528866
80.000000,176.721199,54.655724,47.793174,108.125157,45.284540,9.549356
81.000000,177.458502,54.825266,48.026039,108.679067,45.467394,9.569491
82.000000,178.189170,54.994248,48.254694,109.225096,45.646383,9.589316
83.000000,178.939996,55.171885,48.486145,109.780339,45.828911,9.608875
84.000000,179.699043,55.353954,48.716830,110.336897,46.011455,9.628216
85.000000,180.453157,55.535127,48.942623,110.882229,46.189981,9.647385
86.000000,181.227973,55.725153,49.170619,111.436949,46.371531,9.669610
87.000000,181.998769,55.915276,49.393816,111.980694,46.550158,9.689045
88.000000,182.789706,56.113883,49.618408,112.531050,46.731822,9.708510
89.000000,183.591652,56.317087,49.841777,113.078594,46.914228,9.728059
90.000000,184.390023,56.521990,50.060481,113.618987,47.094166,9.747742
91.000000,185.211541,56.733928,50.280231,114.163180,47.276360,9.766369
92.000000,186.025948,56.947771,50.494493,114.698573,47.456624,9.786642
93.000000,186.870608,57.172701,50.712355,115.245303,47.641464,9.810865
94.000000,187.718808,57.402617,50.926908,115.789259,47.826428,9.832268
95.000000,188.563297,57.633235,51.135934,116.322767,48.009721,9.854110
96.000000,189.437097,57.876204,51.347784,116.867007,48.199356,9.876445
97.000000,190.302100,58.117978,51.552892,117.398655,48.385383,9.899325
98.000000,191.197016,58.371497,51.760886,117.940192,48.578168,9.921515
99.000000,192.096741,58.628764,51.966093,118.478955,48.771324,9.945802
100.000000,192.992367,58.887527,52.166015,119.011013,48.962427,9.974563
101.000000,193.915635,59.157986,52.369528,119.556109,49.160602,10.000788
102.000000,194.830890,59.427531,52.565755,120.089630,49.355280,10.027838
103.000000,195.773415,59.708859,52.765651,120.636441,49.557642,10.055756
104.000000,196.724723,59.993519,52.962456,121.181947,49.760807,10.084583
105.000000,197.667491,60.278724,53.153958,121.720652,49.962009,10.112964
106.000000,198.645086,60.575530,53.349750,122.274429,50.170572,10.143901
107.000000,199.607686,60.870491,53.538476,122.818465,50.376223,10.175825
108.000000,200.600535,61.176933,53.731371,123.379069,50.588739,10.212233
109.000000,201.601618,61.486237,53.921548,123.941635,50.802317,10.246719
110.000000,202.593344,61.795032,54.107433,124.498616,51.015253,10.282328
111.000000,203.621210,62.114400,54.298556,125.073297,51.235638,10.319079
112.000000,204.649733,62.436548,54.487535,125.648854,51.457300,10.356989
113.000000,205.675291,62.759144,54.674204,126.225955,51.679439,10.394533
114.000000,206.717375,63.089157,54.862931,126.813653,51.905826,10.434990
115.000000,207.752272,63.416663,55.048007,127.399923,52.131688,10.480144
116.000000,208.818438,63.754734,55.239307,128.007054,52.364749,10.523430
117.000000,209.887291,64.093179,55.429829,128.619520,52.599305,10.567933
118.000000,210.955489,64.431645,55.619139,129.233334,52.834760,10.613651
119.000000,212.040509,64.774627,55.812642,129.863063,53.074918,10.660576
120.000000,213.118267,65.115608,56.003101,130.490567,53.314086,10.707098
121.000000,214.228285,65.464586,56.201707,131.143781,53.561680,10.756608
122.000000,215.344447,65.812973,56.400197,131.804670,53.810539,10.811027
123.000000,216.454352,66.161703,56.598766,132.464998,54.059860,10.863339
124.000000,217.586837,66.513354,56.801836,133.144757,54.314264,10.916811
125.000000,218.707421,66.862449,57.004077,133.820783,54.567395,10.971419
126.000000,219.861787,67.219538,57.215166,134.524084,54.829043,11.027138
127.000000,221.017616,67.575500,57.428212,135.231378,55.091814,11.082343
128.000000,222.164874,67.928289,57.640705,135.939638,55.353274,11.140400
129.000000,223.341851,68.288627,57.862630,136.670279,55.622930,11.203203
130.000000,224.506893,68.642846,58.082635,137.397517,55.889365,11.263750
131.000000,225.699514,69.004520,58.312940,138.149583,56.164435,11.325280
132.000000,226.897899,69.364787,58.546397,138.907113,56.440540,11.387757
133.000000,228.089903,69.720617,58.780209,139.665017,56.714698,11.451143
134.000000,229.317897,70.085349,59.025697,140.447939,56.997249,11.515399
135.000000,230.528655,70.442278,59.269185,141.224654,57.275983,11.578862
136.000000,231.778623,70.808156,59.524824,142.027418,57.562340,11.644940
137.000000,233.029429,71.171986,59.783586,142.834310,57.849296,11.715310
138.000000,234.274657,71.531690,60.043426,143.639885,58.134839,11.783289
139.000000,235.556509,71.899442,60.314151,144.469620,58.428493,11.851952
140.000000,236.826330,72.260416,60.584551,145.292792,58.717979,11.921258
141.000000,238.129370,72.629888,60.865828,146.141035,59.014618,11.991161
142.000000,239.438833,72.998730,61.151538,146.996568,59.310750,12.059933
143.000000,240.745562,73.362620,61.438487,147.844656,59.605236,12.131112
144.000000,242.090841,73.736420,61.737548,148.720745,59.906605,12.206411
145.000000,243.443180,74.107869,62.039857,149.601871,60.207693,12.278942
146.000000,244.799716,74.478679,62.345213,150.478226,60.508368,12.351876
147.000000,246.183299,74.852141,62.658044,151.372497,60.811580,12.425167
148.000000,247.561350,75.223536,62.972039,152.259135,61.112522,12.498772
149.000000,248.988679,75.603149,63.297323,153.168813,61.420213,12.570848
150.000000,250.423965,75.983854,63.625405,154.081530,61.727411,12.645174
151.000000,251.860550,76.363417,63.956278,154.993007,62.033076,12.719641
152.000000,253.324580,76.749223,64.293425,155.919809,62.341292,12.798099
153.000000,254.786977,77.130829,64.631511,156.840808,62.646132,12.873275
154.000000,256.292572,77.523111,64.980020,157.788198,62.957013,12.948518
155.000000,257.811563,77.915206,65.331489,158.741068,63.265743,13.023782
156.000000,259.334851,78.306770,65.683984,159.687032,63.573525,13.099018
157.000000,260.892901,78.704639,66.042948,160.650997,63.881859,13.172272
158.000000,262.445292,79.099132,66.400622,161.606533,64.187632,13.247555
159.000000,264.048693,79.505217,66.768120,162.587964,64.498066,13.326101
160.000000,265.660371,79.911472,67.136714,163.572474,64.807686,13.401424
161.000000,267.267835,80.314180,67.503857,164.551606,65.112755,13.476499
162.000000,268.925051,80.728202,67.880917,165.554661,65.424097,13.551278
163.000000,270.571469,81.136438,68.252887,166.548851,65.727959,13.625710
164.000000,272.270378,81.556227,68.635651,167.567688,66.037457,13.697747
165.000000,273.988385,81.977372,69.019313,168.590563,66.343453,13.771590
166.000000,275.693235,82.394630,69.398722,169.610328,66.645422,13.848379
167.000000,277.451276,82.823210,69.787565,170.654670,66.952177,13.921600
168.000000,279.192097,83.245418,70.170120,171.693355,67.252310,13.994239
169.000000,280.984138,83.679828,70.560409,172.756077,67.557215,14.066243
170.000000,282.788140,84.115193,70.949505,173.829330,67.859560,14.137560
171.000000,284.581930,84.544632,71.334696,174.900811,68.156546,14.206195
172.000000,286.427825,84.985409,71.727635,176.002321,68.459170,14.276229
173.000000,288.254428,85.418970,72.113913,177.095648,68.753571,14.345378
174.000000,290.134706,85.863047,72.508106,178.221072,69.053573,14.417618
175.000000,292.023376,86.307342,72.900487,179.354814,69.349907,14.485427
176.000000,293.900564,86.746921,73.288094,180.486234,69.640713,14.552261
177.000000,295.828571,87.197978,73.683008,181.649018,69.936715,14.618072
178.000000,297.760891,87.648391,74.075612,182.817197,70.230168,14.682807
179.000000,299.691803,88.096121,74.465481,183.995548,70.518824,14.744569
180.000000,301.647002,88.549728,74.857173,185.192457,70.808845,14.807244
181.000000,303.597029,88.997661,75.243907,186.393080,71.092220,14.872605
182.000000,305.584117,89.456766,75.637129,187.628134,71.379882,14.933299
183.000000,307.576706,89.914263,76.027823,188.875506,71.663237,14.992716
184.000000,309.570004,90.369139,76.415199,190.128454,71.943212,15.050818
185.000000,311.580907,90.827952,76.804036,191.406587,72.222722,15.107564
186.000000,313.586340,91.282713,77.187567,192.684120,72.496483,15.161075
187.000000,315.627010,91.745494,77.577329,194.000685,72.773943,15.215242
188.000000,317.673036,92.207878,77.964670,195.327760,73.046907,15.271542
189.000000,319.718691,92.668387,78.347925,196.660392,73.316060,15.323224
190.000000,321.786762,93.133686,78.732823,198.014192,73.584165,15.373422
191.000000,323.842524,93.594268,79.111602,199.372021,73.846072,15.422115
192.000000,325.933643,94.065161,79.497148,200.764191,74.111534,15.469283
193.000000,328.023024,94.536405,79.879678,202.174531,74.372260,15.513105
194.000000,330.106571,95.002296,80.256164,203.579405,74.626059,15.557409
195.000000,332.230730,95.480860,80.639427,205.020491,74.884268,15.600112
196.000000,334.331942,95.950627,81.013684,206.452476,75.132245,15.645008
197.000000,336.482083,96.433155,81.395149,207.914584,75.384917,15.685045
198.000000,338.635218,96.915118,81.772761,209.383147,75.632570,15.723534
199.000000,340.769081,97.392243,82.144135,210.852103,75.871553,15.760479
200.000000,342.945321,97.882504,82.521733,212.352764,76.114714,15.794044
201.000000,345.099369,98.365252,82.891085,213.843763,76.346884,15.828161
202.000000,347.291897,98.862568,83.266923,215.363389,76.582428,15.860728
203.000000,349.493602,99.360876,83.640028,216.883695,76.812088,15.895795
204.000000,351.683102,99.855163,84.006708,218.400933,77.034078,15.925901
205.000000,353.918749,100.364122,84.381035,219.942940,77.259185,15.954584
206.000000,356.129099,100.866950,84.746612,221.471297,77.473658,15.981870
207.000000,358.386185,101.383664,85.118912,223.025854,77.690949,16.007788
208.000000,360.645881,101.902186,85.488773,224.578425,77.901892,16.030397
209.000000,362.897867,102.419676,85.852591,226.118276,78.105435,16.053927
210.000000,365.195753,102.951778,86.223031,227.677236,78.311590,16.080243
211.000000,367.499227,103.486977,86.590319,229.233006,78.511745,16.101798
212.000000,369.800987,104.024488,86.954910,230.776648,78.706785,16.122197
213.000000,372.130065,104.571767,87.321075,232.330139,78.899772,16.141485
214.000000,374.449553,105.118854,87.681848,233.860703,79.085315,16.159708
215.000000,376.810612,105.680993,88.049630,235.407745,79.274089,16.174817
216.000000,379.175607,106.248442,88.415491,236.942481,79.457242,16.191321
217.000000,381.541446,106.817082,88.778005,238.458501,79.635367,16.211358
218.000000,383.934718,107.397778,89.144673,239.977933,79.812550,16.226646
219.000000,386.312952,107.976168,89.504480,241.468530,79.982318,16.241153
220.000000,388.742864,108.572654,89.872892,242.969223,80.157516,16.254935
221.000000,391.171400,109.172287,90.239670,244.451828,80.328407,16.268044
222.000000,393.590057,109.774606,90.601487,245.908069,80.493381,16.280536
223.000000,396.034678,110.388172,90.967941,247.360223,80.659153,16.290347
224.000000,398.455399,110.999936,91.326679,248.778070,80.817601,16.302032
225.000000,400.922803,111.629246,91.695191,250.200388,80.981564,16.317545
226.000000,403.381409,112.260179,92.060846,251.596645,81.141603,16.328912
227.000000,405.813131,112.890267,92.420937,252.957884,81.295986,16.339957
228.000000,408.281788,113.537417,92.788709,254.324018,81.456786,16.350734
229.000000,410.708568,114.178657,93.148052,255.645038,81.609383,16.361292
230.000000,413.163459,114.835783,93.515316,256.970318,81.768544,16.369454
231.000000,415.597921,115.493821,93.880377,258.268651,81.924437,16.380012
232.000000,417.999987,116.150075,94.238933,259.524685,82.075834,16.394418
233.000000,420.422058,116.819529,94.606604,260.782174,82.234502,16.405370
234.000000,422.791960,117.482730,94.964417,261.991580,82.386629,16.416366
235.000000,425.182034,118.159103,95.331254,263.202659,82.546177,16.427450
236.000000,427.539957,118.835539,95.695075,264.384709,82.704103,16.438664
237.000000,429.849278,119.506472,96.051975,265.526326,82.859074,16.447615
238.000000,432.175338,120.191578,96.418344,266.669259,83.021917,16.459518
239.000000,434.429636,120.865409,96.774406,267.765118,83.179575,16.471615
240.000000,436.695985,121.553054,97.138992,268.864071,83.345578,16.489078
241.000000,438.914708,122.236477,97.500453,269.936342,83.511758,16.502411
242.000000,441.072060,122.911792,97.855245,270.968630,83.675287,16.516120
243.000000,443.227732,123.597288,98.218151,272.009373,83.848046,16.530235
244.000000,445.335512,124.279301,98.577847,273.024973,84.020350,16.542279
245.000000,447.382534,124.954379,98.932749,274.009845,84.193424,16.557609
246.000000,449.402738,125.631206,99.290075,274.989795,84.371118,16.573371
247.000000,451.349929,126.297730,99.640298,275.935182,84.546444,16.595700
248.000000,453.283928,126.971453,99.999465,276.888292,84.732818,16.613286
249.000000,455.159785,127.640422,100.356239,277.823392,84.918700,16.631473
250.000000,456.971181,128.299519,100.707234,278.734581,85.105254,16.650281
251.000000,458.746185,128.960407,101.062317,279.647754,85.296406,16.669728
252.000000,460.445264,129.606780,101.408561,280.531682,85.485313,16.687152
253.000000,462.134480,130.261485,101.764627,281.431711,85.685706,16.708271
254.000000,463.770844,130.907691,102.116236,282.317742,85.885789,16.734923
255.000000,465.332845,131.541610,102.464610,283.188653,86.086258,16.758039
256.000000,466.874054,132.174215,102.815795,284.068436,86.291042,16.781900
257.000000,468.325873,132.791807,103.160075,284.924806,86.493567,16.806522
258.000000,469.790330,133.415471,103.516255,285.813156,86.707043,16.831916
259.000000,471.197511,134.030473,103.870710,286.696015,86.921196,16.855366
260.000000,472.522598,134.629075,104.217177,287.559553,87.131271,16.882688
261.000000,473.857321,135.233787,104.574892,288.455140,87.353506,16.910760
262.000000,475.104970,135.817643,104.922256,289.326697,87.567563,16.943056
263.000000,476.362648,136.407917,105.280411,290.236499,87.792027,16.973154
264.000000,477.574145,136.987187,105.636624,291.153207,88.013125,17.004081
265.000000,478.727244,137.549669,105.988178,292.050185,88.232131,17.035841
266.000000,479.891803,138.119146,106.353266,292.996960,88.460858,17.068437
267.000000,480.994719,138.668193,106.709406,293.919118,88.683274,17.099102
268.000000,482.116566,139.222244,107.080117,294.888406,88.914986,17.133730
269.000000,483.216418,139.767446,107.451132,295.867402,89.145384,17.172606
270.000000,484.272915,140.297997,107.817541,296.841446,89.371268,17.209310
271.000000,485.369295,140.835091,108.198520,297.859751,89.605965,17.246855
272.000000,486.409690,141.352982,108.572003,298.867987,89.833327,17.285240
273.000000,487.502502,141.878224,108.962130,299.920784,90.069341,17.324458
